#    s [m]                    WP [V/pC]
# ------------------------------------------------
-1.282338199999999984e-01 1.151858404110553646e-15
-1.279335722033883294e-01 1.355827683325089547e-15
-1.276333244067766604e-01 1.595098962623313371e-15
-1.273330766101649913e-01 1.875641596998774695e-15
-1.270328288135533223e-01 2.204413426841335888e-15
-1.267325810169416533e-01 2.589521446906734056e-15
-1.264323332203299843e-01 3.040407125651193792e-15
-1.261320854237183153e-01 3.568060662285802295e-15
-1.258318376271066463e-01 4.185269495204598529e-15
-1.255315898304949773e-01 4.906906919275648645e-15
-1.252313420338833083e-01 5.750266825542907520e-15
-1.249310942372716393e-01 6.735450780697368896e-15
-1.246308464406599703e-01 7.885814384714350549e-15
-1.243305986440483013e-01 9.228481270870512145e-15
-1.240303508474366323e-01 1.079493504825837690e-14
-1.237301030508249633e-01 1.262170153062159763e-14
-1.234298552542132943e-01 1.475113544508722292e-14
-1.231296074576016253e-01 1.723232748142430115e-14
-1.228293596609899563e-01 2.012214932396812332e-14
-1.225291118643782873e-01 2.348645656377539053e-14
-1.222288640677666183e-01 2.740147230418802656e-14
-1.219286162711549493e-01 3.195537779104365450e-14
-1.216283684745432803e-01 3.725014034494890529e-14
-1.213281206779316113e-01 4.340361315948907321e-14
-1.210278728813199423e-01 5.055194626477911150e-14
-1.207276250847082733e-01 5.885235338652560777e-14
-1.204273772880966042e-01 6.848628577729370537e-14
-1.201271294914849352e-01 7.966307142826552434e-14
-1.198268816948732662e-01 9.262408630928395902e-14
-1.195266338982615972e-01 1.076475333307437269e-13
-1.192263861016499282e-01 1.250539145942631289e-13
-1.189261383050382592e-01 1.452122934370630749e-13
-1.186258905084265902e-01 1.685474552353245628e-13
-1.183256427118149212e-01 1.955480905079390680e-13
-1.180253949152032522e-01 2.267761411063883574e-13
-1.177251471185915832e-01 2.628774704548480601e-13
-1.174248993219799142e-01 3.045940417056890315e-13
-1.171246515253682452e-01 3.527778126759791783e-13
-1.168244037287565762e-01 4.084065829571639835e-13
-1.165241559321449072e-01 4.726020568178438407e-13
-1.162239081355332382e-01 5.466504168435575406e-13
-1.159236603389215692e-01 6.320257399999143420e-13
-1.156234125423099002e-01 7.304166321073921988e-13
-1.153231647456982312e-01 8.437565092158949957e-13
-1.150229169490865622e-01 9.742580137261934705e-13
-1.147226691524748932e-01 1.124452116984035158e-12
-1.144224213558632242e-01 1.297232527167914128e-12
-1.141221735592515552e-01 1.495906092999736886e-12
-1.138219257626398861e-01 1.724249974177306918e-12
-1.135216779660282171e-01 1.986576443172394853e-12
-1.132214301694165481e-01 2.287806292999744563e-12
-1.129211823728048791e-01 2.633551951520825412e-12
-1.126209345761932101e-01 3.030211542696659961e-12
-1.123206867795815411e-01 3.485075287531844873e-12
-1.120204389829698721e-01 4.006445803454973634e-12
-1.117201911863582031e-01 4.603774044087705364e-12
-1.114199433897465341e-01 5.287812825669829976e-12
-1.111196955931348651e-01 6.070790114493829089e-12
-1.108194477965231961e-01 6.966604503379103882e-12
-1.105191999999115271e-01 7.991045587451312101e-12
-1.102189522032998581e-01 9.162042265569918980e-12
-1.099187044066881891e-01 1.049994234978021869e-11
-1.096184566100765201e-01 1.202782726449890789e-11
-1.093182088134648511e-01 1.377186605823649354e-11
-1.090179610168531821e-01 1.576171342936740241e-11
-1.087177132202415131e-01 1.803095698341718192e-11
-1.084174654236298441e-01 2.061761950150481083e-11
-1.081172176270181751e-01 2.356472262577182624e-11
-1.078169698304065061e-01 2.692091907646053987e-11
-1.075167220337948371e-01 3.074120131620934794e-11
-1.072164742371831681e-01 3.508769546604855538e-11
-1.069162264405714990e-01 4.003055024339431885e-11
-1.066159786439598300e-01 4.564893172984754499e-11
-1.063157308473481610e-01 5.203213589647345977e-11
-1.060154830507364920e-01 5.928083204188563761e-11
-1.057152352541248230e-01 6.750845166164374098e-11
-1.054149874575131540e-01 7.684273878336963143e-11
-1.051147396609014850e-01 8.742747947232359440e-11
-1.048144918642898160e-01 9.942443003303137918e-11
-1.045142440676781470e-01 1.130154654059713270e-10
-1.042139962710664780e-01 1.284049714010142893e-10
-1.039137484744548090e-01 1.458225067451589656e-10
-1.036135006778431400e-01 1.655257634719993511e-10
-1.033132528812314710e-01 1.878038569544062026e-10
-1.030130050846198020e-01 2.129809798861124754e-10
-1.027127572880081330e-01 2.414204577670011329e-10
-1.024125094913964640e-01 2.735292469703855086e-10
-1.021122616947847950e-01 3.097629203061325692e-10
-1.018120138981731260e-01 3.506311891654589636e-10
-1.015117661015614570e-01 3.967040158459718120e-10
-1.012115183049497880e-01 4.486183744946726204e-10
-1.009112705083381190e-01 5.070857242715508749e-10
-1.006110227117264500e-01 5.729002638520695567e-10
-1.003107749151147809e-01 6.469480423127489956e-10
-1.000105271185031119e-01 7.302170078370760424e-10
-9.971027932189144294e-02 8.238080825733555767e-10
-9.941003152527977393e-02 9.289473593554233423e-10
-9.910978372866810493e-02 1.046999523833899561e-09
-9.880953593205643593e-02 1.179482613838194546e-09
-9.850928813544476692e-02 1.328084236526503064e-09
-9.820904033883309792e-02 1.494679373131650107e-09
-9.790879254222142891e-02 1.681349910925133688e-09
-9.760854474560975991e-02 1.890406052405319907e-09
-9.730829694899809090e-02 2.124409762633963384e-09
-9.700804915238642190e-02 2.386200427048817212e-09
-9.670780135577475289e-02 2.678922903938028828e-09
-9.640755355916308389e-02 3.006058168079349250e-09
-9.610730576255141488e-02 3.371456754829923371e-09
-9.580705796593974588e-02 3.779375227173810342e-09
-9.550681016932807688e-02 4.234515901817538224e-09
-9.520656237271640787e-02 4.742070084248895819e-09
-9.490631457610473887e-02 5.307765076651902271e-09
-9.460606677949306986e-02 5.937915236594166129e-09
-9.430581898288140086e-02 6.639477378423928341e-09
-9.400557118626973185e-02 7.420110823192084053e-09
-9.370532338965806285e-02 8.288242416489161279e-09
-9.340507559304639384e-02 9.253136846585735908e-09
-9.310482779643472484e-02 1.032497260741088251e-08
-9.280457999982305584e-02 1.151492396191171246e-08
-9.250433220321138683e-02 1.283524927096989177e-08
-9.220408440659971783e-02 1.429938606100427585e-08
-9.190383660998804882e-02 1.592205320926436891e-08
-9.160358881337637982e-02 1.771936062915987073e-08
-9.130334101676471081e-02 1.970892683811358533e-08
-9.100309322015304181e-02 2.191000478684940704e-08
-9.070284542354137280e-02 2.434361632095213544e-08
-9.040259762692970380e-02 2.703269563242852752e-08
-9.010234983031803480e-02 3.000224203997025126e-08
-8.980210203370636579e-02 3.327948241084263516e-08
-8.950185423709469679e-02 3.689404350366465992e-08
-8.920160644048302778e-02 4.087813446853890209e-08
-8.890135864387135878e-02 4.526673968790260500e-08
-8.860111084725968977e-02 5.009782207652403275e-08
-8.830086305064802077e-02 5.541253688104713577e-08
-8.800061525403635176e-02 6.125545592638640608e-08
-8.770036745742468276e-02 6.767480214660679044e-08
-8.740011966081301376e-02 7.472269410908761490e-08
-8.709987186420134475e-02 8.245540009099060982e-08
-8.679962406758967575e-02 9.093360109327833274e-08
-8.649937627097800674e-02 1.002226619777331863e-07
-8.619912847436633774e-02 1.103929096830578792e-07
-8.589888067775466873e-02 1.215199172147642068e-07
-8.559863288114299973e-02 1.336847918058549486e-07
-8.529838508453133072e-02 1.469744653080722844e-07
-8.499813728791966172e-02 1.614819844922846810e-07
-8.469788949130799272e-02 1.773067985069770081e-07
-8.439764169469632371e-02 1.945550402615828293e-07
-8.409739389808465471e-02 2.133397979601480379e-07
-8.379714610147298570e-02 2.337813724071436645e-07
-8.349689830486131670e-02 2.560075150325410068e-07
-8.319665050824964769e-02 2.801536408335034484e-07
-8.289640271163797869e-02 3.063630095961817127e-07
-8.259615491502630968e-02 3.347868678380074003e-07
-8.229590711841464068e-02 3.655845428884451628e-07
-8.199565932180297168e-02 3.989234793988103708e-07
-8.169541152519130267e-02 4.349792073268974668e-07
-8.139516372857963367e-02 4.739352290746069518e-07
-8.109491593196796466e-02 5.159828119524812681e-07
-8.079466813535629566e-02 5.613206704962445703e-07
-8.049442033874462665e-02 6.101545213542048092e-07
-8.019417254213295765e-02 6.626964914889266885e-07
-7.989392474552128864e-02 7.191643582820883570e-07
-7.959367694890961964e-02 7.797805977801478973e-07
-7.929342915229795064e-02 8.447712147598971029e-07
-7.899318135568628163e-02 9.143643255115012357e-07
-7.869293355907461263e-02 9.887884612189554007e-07
-7.839268576246294362e-02 1.068270556542668520e-06
-7.809243796585127462e-02 1.153033584468924507e-06
-7.779219016923960561e-02 1.243293794657417802e-06
-7.749194237262793661e-02 1.339257508387851995e-06
-7.719169457601626760e-02 1.441117418744748776e-06
-7.689144677940459860e-02 1.549048339883155118e-06
-7.659119898279292959e-02 1.663202344051838678e-06
-7.629095118618126059e-02 1.783703219514781410e-06
-7.599070338956959159e-02 1.910640176562155033e-06
-7.569045559295792258e-02 2.044060722439000315e-06
-7.539020779634625358e-02 2.183962619208006093e-06
-7.508995999973458457e-02 2.330284831291276506e-06
-7.478971220312291557e-02 2.482897361678702554e-06
-7.448946440651124656e-02 2.641589867518225371e-06
-7.418921660989957756e-02 2.806058937012790757e-06
-7.388896881328790855e-02 2.975893900204858796e-06
-7.358872101667623955e-02 3.150561036317679352e-06
-7.328847322006457055e-02 3.329386029810978015e-06
-7.298822542345290154e-02 3.511534516207054261e-06
-7.268797762684123254e-02 3.695990546981374986e-06
-7.238772983022956353e-02 3.881532790460620499e-06
-7.208748203361789453e-02 4.066708272567799115e-06
-7.178723423700622552e-02 4.249803447587683173e-06
-7.148698644039455652e-02 4.428812374643420679e-06
-7.118673864378288751e-02 4.601401760527188365e-06
-7.088649084717121851e-02 4.764872613629989621e-06
-7.058624305055954951e-02 4.916118237223756685e-06
-7.028599525394788050e-02 5.051578273048287135e-06
-6.998574745733621150e-02 5.167188488195128449e-06
-6.968549966072454249e-02 5.258325979567113567e-06
-6.938525186411287349e-02 5.319749450772548777e-06
-6.908500406750120448e-02 5.345534196225233536e-06
-6.878475627088953548e-02 5.329001406408637862e-06
-6.848450847427786647e-02 5.262641386852186519e-06
-6.818426067766619747e-02 5.138030261213068761e-06
-6.788401288105452847e-02 4.945739706246584599e-06
-6.758376508444285946e-02 4.675239243163254471e-06
-6.728351728783119046e-02 4.314790586137022946e-06
-6.698326949121952145e-02 3.851333524446002587e-06
-6.668302169460785245e-02 3.270362790190952963e-06
-6.638277389799618344e-02 2.555795338502748338e-06
-6.608252610138451444e-02 1.689827442011725606e-06
-6.578227830477284543e-02 6.527809758987080344e-07
-6.548203050816117643e-02 -5.770617555570454149e-07
-6.518178271154950743e-02 -2.023635325429536459e-06
-6.488153491493783842e-02 -3.713281323360824809e-06
-6.458128711832616942e-02 -5.674952052298679921e-06
-6.428103932171450041e-02 -7.940428532076659003e-06
-6.398079152510283141e-02 -1.054455358316713113e-05
-6.368054372849116240e-02 -1.352548078714125652e-05
-6.338029593187949340e-02 -1.692494014274914524e-05
-6.308004813526782439e-02 -2.078852125803378129e-05
-6.277980033865615539e-02 -2.516597493843409554e-05
-6.247955254204448639e-02 -3.011153404965353651e-05
-6.217930474543281738e-02 -3.568425455076682353e-05
-6.187905694882114838e-02 -4.194837760781274709e-05
-6.157880915220947937e-02 -4.897371371062931330e-05
-6.127856135559781037e-02 -5.683604972584929536e-05
-6.097831355898614136e-02 -6.561757982635190866e-05
-6.067806576237447236e-02 -7.540736124190993892e-05
-6.037781796576280335e-02 -8.630179577637278859e-05
-6.007757016915113435e-02 -9.840513803452074788e-05
-5.977732237253946534e-02 -1.118300312947181647e-04
-5.947707457592779634e-02 -1.266980719529590385e-04
-5.917682677931612734e-02 -1.431404034479900379e-04
-5.887657898270445833e-02 -1.612983405567257637e-04
-5.857633118609278933e-02 -1.813240249234972809e-04
-5.827608338948112032e-02 -2.033811126549520815e-04
-5.797583559286945132e-02 -2.276454947748302168e-04
-5.767558779625778231e-02 -2.543060512885613302e-04
-5.737533999964611331e-02 -2.835654395571070210e-04
-5.707509220303444430e-02 -3.156409176214436808e-04
-5.677484440642277530e-02 -3.507652030532804142e-04
-5.647459660981110630e-02 -3.891873678338681679e-04
-5.617434881319943729e-02 -4.311737696823252260e-04
-5.587410101658776829e-02 -4.770090201629247962e-04
-5.557385321997609928e-02 -5.269969898035532004e-04
-5.527360542336443028e-02 -5.814618503463730905e-04
-5.497335762675276127e-02 -6.407491541374892583e-04
-5.467310983014109227e-02 -7.052269505306051674e-04
-5.437286203352942326e-02 -7.752869390461538009e-04
-5.407261423691775426e-02 -8.513456588739225315e-04
-5.377236644030608526e-02 -9.338457141547618990e-04
-5.347211864369441625e-02 -1.023257034301603731e-03
-5.317187084708274725e-02 -1.120078168445800323e-03
-5.287162305047107824e-02 -1.224837612897688001e-03
-5.257137525385940924e-02 -1.338095170313985871e-03
-5.227112745724774023e-02 -1.460443339048307079e-03
-5.197087966063607123e-02 -1.592508730939369435e-03
-5.167063186402440222e-02 -1.734953515555949510e-03
-5.137038406741273322e-02 -1.888476888671787460e-03
-5.107013627080106422e-02 -2.053816562492039033e-03
-5.076988847418939521e-02 -2.231750274883767884e-03
-5.046964067757772621e-02 -2.423097314589897459e-03
-5.016939288096605720e-02 -2.628720059119163746e-03
-4.986914508435438820e-02 -2.849525521718012430e-03
-4.956889728774271919e-02 -3.086466903521376155e-03
-4.926864949113105019e-02 -3.340545146677874160e-03
-4.896840169451938118e-02 -3.612810483921937831e-03
-4.866815389790771218e-02 -3.904363979755291324e-03
-4.836790610129604318e-02 -4.216359058064440661e-03
-4.806765830468437417e-02 -4.550003010676963167e-03
-4.776741050807270517e-02 -4.906558481023141557e-03
-4.746716271146103616e-02 -5.287344916740369626e-03
-4.716691491484936716e-02 -5.693739984721282558e-03
-4.686666711823769815e-02 -6.127180941772831894e-03
-4.656641932162602915e-02 -6.589165953723706039e-03
-4.626617152501436014e-02 -7.081255355492544964e-03
-4.596592372840269114e-02 -7.605072844315649561e-03
-4.566567593179102214e-02 -8.162306598003566185e-03
-4.536542813517935313e-02 -8.754710309814560040e-03
-4.506518033856768413e-02 -9.384104131221850109e-03
-4.476493254195601512e-02 -1.005237551359769790e-02
-4.446468474534434612e-02 -1.076147993954467558e-02
-4.416443694873267711e-02 -1.151344153438860728e-02
-4.386418915212100811e-02 -1.231035354810117340e-02
-4.356394135550933910e-02 -1.315437869773879859e-02
-4.326369355889767010e-02 -1.404774936028137244e-02
-4.296344576228600110e-02 -1.499276760562308700e-02
-4.266319796567433209e-02 -1.599180505932905338e-02
-4.236295016906266309e-02 -1.704730258470078461e-02
-4.206270237245099408e-02 -1.816176977360902875e-02
-4.176245457583932508e-02 -1.933778423554691553e-02
-4.146220677922765607e-02 -2.057799067437234009e-02
-4.116195898261598707e-02 -2.188509974225966159e-02
-4.086171118600431806e-02 -2.326188666048479431e-02
-4.056146338939264906e-02 -2.471118959679986793e-02
-4.026121559278098005e-02 -2.623590778936826101e-02
-3.996096779616931105e-02 -2.783899940744599330e-02
-3.966071999955764205e-02 -2.952347913931014506e-02
-3.936047220294597304e-02 -3.129241549824647584e-02
-3.906022440633430404e-02 -3.314892783785144958e-02
-3.875997660972263503e-02 -3.509618306830061124e-02
-3.845972881311096603e-02 -3.713739206582367114e-02
-3.815948101649929702e-02 -3.927580576808786111e-02
-3.785923321988762802e-02 -4.151471094894280262e-02
-3.755898542327595901e-02 -4.385742566654581703e-02
-3.725873762666429001e-02 -4.630729437975757840e-02
-3.695848983005262101e-02 -4.886768272837194865e-02
-3.665824203344095200e-02 -5.154197197373441147e-02
-3.635799423682928300e-02 -5.433355309715048181e-02
-3.605774644021761399e-02 -5.724582055451927359e-02
-3.575749864360594499e-02 -6.028216568663230523e-02
-3.545725084699427598e-02 -6.344596978571465096e-02
-3.515700305038260698e-02 -6.674059681993707582e-02
-3.485675525377093797e-02 -7.016938581881912440e-02
-3.455650745715926897e-02 -7.373564292374042151e-02
-3.425625966054759997e-02 -7.744263310902652075e-02
-3.395601186393593096e-02 -8.129357158053172883e-02
-3.365576406732426196e-02 -8.529161485995145897e-02
-3.335551627071259295e-02 -8.943985156456907282e-02
-3.305526847410092395e-02 -9.374129289361834982e-02
-3.275502067748925494e-02 -9.819886283394189952e-02
-3.245477288087758594e-02 -1.028153880991679731e-01
-3.215452508426591693e-02 -1.075935878181534522e-01
-3.185427728765424793e-02 -1.125360629899972292e-01
-3.155402949104257893e-02 -1.176452857245631478e-01
-3.125378169443090992e-02 -1.229235882889683773e-01
-3.095353389781924092e-02 -1.283731519820842104e-01
-3.065328610120757191e-02 -1.339959958606637136e-01
-3.035303830459590291e-02 -1.397939653422577977e-01
-3.005279050798423390e-02 -1.457687207116550032e-01
-2.975254271137256490e-02 -1.519217255589564441e-01
-2.945229491476089589e-02 -1.582542351789665847e-01
-2.915204711814922689e-02 -1.647672849629412406e-01
-2.885179932153755789e-02 -1.714616788151387128e-01
-2.855155152492588888e-02 -1.783379776278256612e-01
-2.825130372831421988e-02 -1.853964878496670299e-01
-2.795105593170255087e-02 -1.926372501836236262e-01
-2.765080813509088187e-02 -2.000600284514929272e-01
-2.735056033847921286e-02 -2.076642986631791477e-01
-2.705031254186754386e-02 -2.154492383297001157e-01
-2.675006474525587485e-02 -2.234137160596775806e-01
-2.644981694864420585e-02 -2.315562814797420543e-01
-2.614956915203253685e-02 -2.398751555197310981e-01
-2.584932135542086784e-02 -2.483682211040330323e-01
-2.554907355880919884e-02 -2.570330142906348536e-01
-2.524882576219752983e-02 -2.658667158996483315e-01
-2.494857796558586083e-02 -2.748661436728864760e-01
-2.464833016897419182e-02 -2.840277450060998965e-01
-2.434808237236252282e-02 -2.933475902948760594e-01
-2.404783457575085381e-02 -3.028213669350516279e-01
-2.374758677913918481e-02 -3.124443740174725481e-01
-2.344733898252751580e-02 -3.222115177563074084e-01
-2.314709118591584680e-02 -3.321173076890898135e-01
-2.284684338930417780e-02 -3.421558536853966381e-01
-2.254659559269250879e-02 -3.523208637998888060e-01
-2.224634779608083979e-02 -3.626056430036124212e-01
-2.194609999946917078e-02 -3.730030928262190182e-01
-2.164585220285750178e-02 -3.835057119392963343e-01
-2.134560440624583277e-02 -3.941055977096677432e-01
-2.104535660963416377e-02 -4.047944487484897436e-01
-2.074510881302249476e-02 -4.155635684804578345e-01
-2.044486101641082576e-02 -4.264038697540867839e-01
-2.014461321979915676e-02 -4.373058805120988990e-01
-1.984436542318748775e-02 -4.482597505374407709e-01
-1.954411762657581875e-02 -4.592552592879705631e-01
-1.924386982996414974e-02 -4.702818248295003167e-01
-1.894362203335248074e-02 -4.813285138737361524e-01
-1.864337423674081173e-02 -4.923840529242926034e-01
-1.834312644012914273e-02 -5.034368405304047167e-01
-1.804287864351747372e-02 -5.144749606447168722e-01
-1.774263084690580472e-02 -5.254861970775144275e-01
-1.744238305029413572e-02 -5.364580490364766474e-01
-1.714213525368246671e-02 -5.473777477367191002e-01
-1.684188745707079771e-02 -5.582322740629527269e-01
-1.654163966045912870e-02 -5.690083772608311996e-01
-1.624139186384745970e-02 -5.796925946314938072e-01
-1.594114406723579069e-02 -5.902712721989082922e-01
-1.564089627062412169e-02 -6.007305863162902826e-01
-1.534064847401245268e-02 -6.110565661737636933e-01
-1.504040067740078368e-02 -6.212351171658603288e-01
-1.474015288078911468e-02 -6.312520450736122113e-01
-1.443990508417744567e-02 -6.410930810127566382e-01
-1.413965728756577667e-02 -6.507439070957152794e-01
-1.383940949095410766e-02 -6.601901827518812382e-01
-1.353916169434243866e-02 -6.694175716473724780e-01
-1.323891389773076965e-02 -6.784117691422935081e-01
-1.293866610111910065e-02 -6.871585302209812784e-01
-1.263841830450743164e-02 -6.956436978272041438e-01
