#    s [m]                    WP [V/pC]
# ------------------------------------------------
-1.282338199999999984e-01 -0.000000000000000000e+00
-1.279335722033883294e-01 -3.504708086090655737e-19
-1.276333244067766604e-01 -7.676868378475888115e-19
-1.273330766101649913e-01 -1.264133341487741370e-18
-1.270328288135533223e-01 -1.854586541917703250e-18
-1.267325810169416533e-01 -2.556525597320315517e-18
-1.264323332203299843e-01 -3.390617137512018246e-18
-1.261320854237183153e-01 -4.381284895212032538e-18
-1.258318376271066463e-01 -5.557379080625448347e-18
-1.255315898304949773e-01 -6.952962621004286864e-18
-1.252313420338833083e-01 -8.608234270926872047e-18
-1.249310942372716393e-01 -1.057061196034053118e-17
-1.246308464406599703e-01 -1.289600366334862839e-17
-1.243305986440483013e-01 -1.565029763116396232e-17
-1.240303508474366323e-01 -1.891110914157015950e-17
-1.237301030508249633e-01 -2.276982709544480274e-17
-1.234298552542132943e-01 -2.733401097830778452e-17
-1.231296074576016253e-01 -3.273019706364231040e-17
-1.228293596609899563e-01 -3.910718245281156503e-17
-1.225291118643782873e-01 -4.663986684076399521e-17
-1.222288640677666183e-01 -5.553374501844530917e-17
-1.219286162711549493e-01 -6.603015836125960712e-17
-1.216283684745432803e-01 -7.841243124133242255e-17
-1.213281206779316113e-01 -9.301303882272105811e-17
-1.210278728813199423e-01 -1.102219764919337133e-16
-1.207276250847082733e-01 -1.304965287432059939e-16
-1.204273772880966042e-01 -1.543726672516437542e-16
-1.201271294914849352e-01 -1.824783447797583787e-16
-1.198268816948732662e-01 -2.155489942170748594e-16
-1.195266338982615972e-01 -2.544455912940060416e-16
-1.192263861016499282e-01 -3.001756963040627721e-16
-1.189261383050382592e-01 -3.539179556155386621e-16
-1.186258905084265902e-01 -4.170506191193309492e-16
-1.183256427118149212e-01 -4.911847164973290599e-16
-1.180253949152032522e-01 -5.782026349923625711e-16
-1.177251471185915832e-01 -6.803029561566651240e-16
-1.174248993219799142e-01 -8.000525411230027520e-16
-1.171246515253682452e-01 -9.404470058984134451e-16
-1.168244037287565762e-01 -1.104980903071966258e-15
-1.165241559321449072e-01 -1.297729127666445752e-15
-1.162239081355332382e-01 -1.523441296687565686e-15
-1.159236603389215692e-01 -1.787651118850799625e-15
-1.156234125423099002e-01 -2.096803078239165736e-15
-1.153231647456982312e-01 -2.458399109209862751e-15
-1.150229169490865622e-01 -2.881168346414564607e-15
-1.147226691524748932e-01 -3.375263500876800462e-15
-1.144224213558632242e-01 -3.952487949169133073e-15
-1.141221735592515552e-01 -4.626558237457026709e-15
-1.138219257626398861e-01 -5.413407406404517355e-15
-1.135216779660282171e-01 -6.331535349040445748e-15
-1.132214301694165481e-01 -7.402413335815783651e-15
-1.129211823728048791e-01 -8.650950895396370778e-15
-1.126209345761932101e-01 -1.010603444473899496e-14
-1.123206867795815411e-01 -1.180114843878988024e-14
-1.120204389829698721e-01 -1.377509138269157064e-14
-1.117201911863582031e-01 -1.607280084487693556e-14
-1.114199433897465341e-01 -1.874630365842070547e-14
-1.111196955931348651e-01 -2.185580983494085957e-14
-1.108194477965231961e-01 -2.547097137891804843e-14
-1.105191999999115271e-01 -2.967233022404396119e-14
-1.102189522032998581e-01 -3.455298296653286117e-14
-1.099187044066881891e-01 -4.022049399934844880e-14
-1.096184566100765201e-01 -4.679909312030555343e-14
-1.093182088134648511e-01 -5.443219876964177657e-14
-1.090179610168531821e-01 -6.328531383380258148e-14
-1.087177132202415131e-01 -7.354934752851729052e-14
-1.084174654236298441e-01 -8.544442435603717157e-14
-1.081172176270181751e-01 -9.922424964295847207e-14
-1.078169698304065061e-01 -1.151811108446685451e-13
-1.075167220337948371e-01 -1.336516048037193642e-13
-1.072164742371831681e-01 -1.550231936409105390e-13
-1.069162264405714990e-01 -1.797417061241827440e-13
-1.066159786439598300e-01 -2.083199174059690501e-13
-1.063157308473481610e-01 -2.413473581691340097e-13
-1.060154830507364920e-01 -2.795015247293542103e-13
-1.057152352541248230e-01 -3.235606847958114535e-13
-1.054149874575131540e-01 -3.744184997219062365e-13
-1.051147396609014850e-01 -4.331007135656455646e-13
-1.048144918642898160e-01 -5.007841925649134323e-13
-1.045142440676781470e-01 -5.788186362188583582e-13
-1.042139962710664780e-01 -6.687513236263210996e-13
-1.039137484744548090e-01 -7.723553067041783679e-13
-1.036135006778431400e-01 -8.916615161014274831e-13
-1.033132528812314710e-01 -1.028995306813997908e-12
-1.030130050846198020e-01 -1.187018039532658226e-12
-1.027127572880081330e-01 -1.368774371538519479e-12
-1.024125094913964640e-01 -1.577746018499353915e-12
-1.021122616947847950e-01 -1.817912846920805937e-12
-1.018120138981731260e-01 -2.093822267509899505e-12
-1.015117661015614570e-01 -2.410668023711910490e-12
-1.012115183049497880e-01 -2.774379608789115419e-12
-1.009112705083381190e-01 -3.191723700842491300e-12
-1.006110227117264500e-01 -3.670419180205877294e-12
-1.003107749151147809e-01 -4.219267490006985131e-12
-1.000105271185031119e-01 -4.848300320982965413e-12
-9.971027932189144294e-02 -5.568946848727053264e-12
-9.941003152527977393e-02 -6.394223028548582937e-12
-9.910978372866810493e-02 -7.338945763462128104e-12
-9.880953593205643593e-02 -8.419975108165536270e-12
-9.850928813544476692e-02 -9.656488060302239552e-12
-9.820904033883309792e-02 -1.107028792428160585e-11
-9.790879254222142891e-02 -1.268615371747942629e-11
-9.760854474560975991e-02 -1.453223462932550717e-11
-9.730829694899809090e-02 -1.664049514694104415e-11
-9.700804915238642190e-02 -1.904721713363701288e-11
-9.670780135577475289e-02 -2.179356589662339387e-11
-9.640755355916308389e-02 -2.492622811637565765e-11
-9.610730576255141488e-02 -2.849813044181030459e-11
-9.580705796593974588e-02 -3.256924859313613564e-11
-9.550681016932807688e-02 -3.720751796932017666e-11
-9.520656237271640787e-02 -4.248985804187171026e-11
-9.490631457610473887e-02 -4.850332424471180061e-11
-9.460606677949306986e-02 -5.534640265610907541e-11
-9.430581898288140086e-02 -6.313046452963418423e-11
-9.400557118626973185e-02 -7.198139968499835263e-11
-9.370532338965806285e-02 -8.204144993694707734e-11
-9.340507559304639384e-02 -9.347126614325264616e-11
-9.310482779643472484e-02 -1.064522151160454497e-10
-9.280457999982305584e-02 -1.211889655910047415e-10
-9.250433220321138683e-02 -1.379123857155911228e-10
-9.220408440659971783e-02 -1.568827881323605681e-10
-9.190383660998804882e-02 -1.783935627311116932e-10
-9.160358881337637982e-02 -2.027752415620671413e-10
-9.130334101676471081e-02 -2.304000452827437693e-10
-9.100309322015304181e-02 -2.616869658991905906e-10
-9.070284542354137280e-02 -2.971074465075252544e-10
-9.040259762692970380e-02 -3.371917252989692668e-10
-9.010234983031803480e-02 -3.825359183201025478e-10
-8.980210203370636579e-02 -4.338099234450512032e-10
-8.950185423709469679e-02 -4.917662367881271123e-10
-8.920160644048302778e-02 -5.572497824399301717e-10
-8.890135864387135878e-02 -6.312088670304318027e-10
-8.860111084725968977e-02 -7.147073822983818385e-10
-8.830086305064802077e-02 -8.089383916744396531e-10
-8.800061525403635176e-02 -9.152392509730039768e-10
-8.770036745742468276e-02 -1.035108428748233568e-09
-8.740011966081301376e-02 -1.170224208829807704e-09
-8.709987186420134475e-02 -1.322465476148891304e-09
-8.679962406758967575e-02 -1.493934807340265832e-09
-8.649937627097800674e-02 -1.686984109923565623e-09
-8.619912847436633774e-02 -1.904243078292643900e-09
-8.589888067775466873e-02 -2.148650761463929869e-09
-8.559863288114299973e-02 -2.423490566748719173e-09
-8.529838508453133072e-02 -2.732429055434936810e-09
-8.499813728791966172e-02 -3.079558921421437308e-09
-8.469788949130799272e-02 -3.469446581789790454e-09
-8.439764169469632371e-02 -3.907184849795796445e-09
-8.409739389808465471e-02 -4.398451205997721822e-09
-8.379714610147298570e-02 -4.949572232527560488e-09
-8.349689830486131670e-02 -5.567594829179796668e-09
-8.319665050824964769e-02 -6.260364888400123660e-09
-8.289640271163797869e-02 -7.036614169778484680e-09
-8.259615491502630968e-02 -7.906056183697384672e-09
-8.229590711841464068e-02 -8.879491968788744332e-09
-8.199565932180297168e-02 -9.968926729274616304e-09
-8.169541152519130267e-02 -1.118769838660906470e-08
-8.139516372857963367e-02 -1.255061919562307014e-08
-8.109491593196796466e-02 -1.407413167917684953e-08
-8.079466813535629566e-02 -1.577648024773361463e-08
-8.049442033874462665e-02 -1.767789999193628184e-08
-8.019417254213295765e-02 -1.980082426786489513e-08
-7.989392474552128864e-02 -2.217011283689995692e-08
-7.959367694890961964e-02 -2.481330247577956012e-08
-7.929342915229795064e-02 -2.776088213832419433e-08
-7.899318135568628163e-02 -3.104659492926720343e-08
-7.869293355907461263e-02 -3.470776934357876294e-08
-7.839268576246294362e-02 -3.878568243256398184e-08
-7.809243796585127462e-02 -4.332595778186201706e-08
-7.779219016923960561e-02 -4.837900142732998432e-08
-7.749194237262793661e-02 -5.400047909379719030e-08
-7.719169457601626760e-02 -6.025183841998472718e-08
-7.689144677940459860e-02 -6.720088013174482669e-08
-7.659119898279292959e-02 -7.492238244647232066e-08
-7.629095118618126059e-02 -8.349878333544317140e-08
-7.599070338956959159e-02 -9.302092563934311775e-08
-7.569045559295792258e-02 -1.035888704268598651e-07
-7.539020779634625358e-02 -1.153127844084697992e-07
-7.508995999973458457e-02 -1.283139076690413085e-07
-7.478971220312291557e-02 -1.427256084653284662e-07
-7.448946440651124656e-02 -1.586945323494915667e-07
-7.418921660989957756e-02 -1.763818534293568917e-07
-7.388896881328790855e-02 -1.959646361619665676e-07
-7.358872101667623955e-02 -2.176373167010902425e-07
-7.328847322006457055e-02 -2.416133134836673585e-07
-7.298822542345290154e-02 -2.681267774466988268e-07
-7.268797762684123254e-02 -2.974344930170285684e-07
-7.238772983022956353e-02 -3.298179418137752244e-07
-7.208748203361789453e-02 -3.655855418492060150e-07
-7.178723423700622552e-02 -4.050750759107034610e-07
-7.148698644039455652e-02 -4.486563237564807291e-07
-7.118673864378288751e-02 -4.967339137630631119e-07
-7.088649084717121851e-02 -5.497504107256703984e-07
-7.058624305055954951e-02 -6.081896576357119069e-07
-7.028599525394788050e-02 -6.725803904449808609e-07
-6.998574745733621150e-02 -7.435001460762087792e-07
-6.968549966072454249e-02 -8.215794852565839749e-07
-6.938525186411287349e-02 -9.075065531368310202e-07
-6.908500406750120448e-02 -1.002032002116039427e-06
-6.878475627088953548e-02 -1.105974302823269899e-06
-6.848450847427786647e-02 -1.220225470813564181e-06
-6.818426067766619747e-02 -1.345757238220011290e-06
-6.788401288105452847e-02 -1.483627701367028988e-06
-6.758376508444285946e-02 -1.634988477194457628e-06
-6.728351728783119046e-02 -1.801092403269421141e-06
-6.698326949121952145e-02 -1.983301818174116684e-06
-6.668302169460785245e-02 -2.183097461154201827e-06
-6.638277389799618344e-02 -2.402088032094938040e-06
-6.608252610138451444e-02 -2.642020455162012891e-06
-6.578227830477284543e-02 -2.904790891800393416e-06
-6.548203050816117643e-02 -3.192456551228365135e-06
-6.518178271154950743e-02 -3.507248349095358131e-06
-6.488153491493783842e-02 -3.851584467588548330e-06
-6.458128711832616942e-02 -4.228084872976163527e-06
-6.428103932171450041e-02 -4.639586849360869554e-06
-6.398079152510283141e-02 -5.089161610283970960e-06
-6.368054372849116240e-02 -5.580132052767410962e-06
-6.338029593187949340e-02 -6.116091721401847377e-06
-6.308004813526782439e-02 -6.700925053182247409e-06
-6.277980033865615539e-02 -7.338828976953209390e-06
-6.247955254204448639e-02 -8.034335944547968736e-06
-6.217930474543281738e-02 -8.792338473982623217e-06
-6.187905694882114838e-02 -9.618115288394309774e-06
-6.157880915220947937e-02 -1.051735913777911423e-05
-6.127856135559781037e-02 -1.149620639398588954e-05
-6.097831355898614136e-02 -1.256126851284430427e-05
-6.067806576237447236e-02 -1.371966546074046072e-05
-6.037781796576280335e-02 -1.497906120638759080e-05
-6.007757016915113435e-02 -1.634770138196223199e-05
-5.977732237253946534e-02 -1.783445322117054979e-05
-5.947707457592779634e-02 -1.944884788516355612e-05
-5.917682677931612734e-02 -2.120112529051339622e-05
-5.887657898270445833e-02 -2.310228155668432246e-05
-5.857633118609278933e-02 -2.516411919354879077e-05
-5.827608338948112032e-02 -2.739930015251251433e-05
-5.797583559286945132e-02 -2.982140186767475888e-05
-5.767558779625778231e-02 -3.244497641616044605e-05
-5.737533999964611331e-02 -3.528561292928187178e-05
-5.707509220303444430e-02 -3.836000338848988609e-05
-5.677484440642277530e-02 -4.168601194214876761e-05
-5.647459660981110630e-02 -4.528274788096012135e-05
-5.617434881319943729e-02 -4.917064241135952611e-05
-5.587410101658776829e-02 -5.337152936736859910e-05
-5.557385321997609928e-02 -5.790873000218845406e-05
-5.527360542336443028e-02 -6.280714200120141662e-05
-5.497335762675276127e-02 -6.809333285800606421e-05
-5.467310983014109227e-02 -7.379563775458814737e-05
-5.437286203352942326e-02 -7.994426208568128811e-05
-5.407261423691775426e-02 -8.657138876576892113e-05
-5.377236644030608526e-02 -9.371129045498373855e-05
-5.347211864369441625e-02 -1.014004468373053006e-04
-5.317187084708274725e-02 -1.096776670809348976e-04
-5.287162305047107824e-02 -1.185842176064377942e-04
-5.257137525385940924e-02 -1.281639552832196198e-04
-5.227112745724774023e-02 -1.384634661690088773e-04
-5.197087966063607123e-02 -1.495322099002874359e-04
-5.167063186402440222e-02 -1.614226698339178386e-04
-5.137038406741273322e-02 -1.741905090316175951e-04
-5.107013627080106422e-02 -1.878947321692213564e-04
-5.076988847418939521e-02 -2.025978534420238642e-04
-5.046964067757772621e-02 -2.183660705255926386e-04
-5.016939288096605720e-02 -2.352694446385199050e-04
-4.986914508435438820e-02 -2.533820867393427262e-04
-4.956889728774271919e-02 -2.727823498744903329e-04
-4.926864949113105019e-02 -2.935530276773174688e-04
-4.896840169451938118e-02 -3.157815590003157672e-04
-4.866815389790771218e-02 -3.395602386431283517e-04
-4.836790610129604318e-02 -3.649864341182105414e-04
-4.806765830468437417e-02 -3.921628083737266715e-04
-4.776741050807270517e-02 -4.211975483695349471e-04
-4.746716271146103616e-02 -4.522045993770028869e-04
-4.716691491484936716e-02 -4.853039048466136775e-04
-4.686666711823769815e-02 -5.206216516591127136e-04
-4.656641932162602915e-02 -5.582905205462738605e-04
-4.626617152501436014e-02 -5.984499414359369411e-04
-4.596592372840269114e-02 -6.412463534432778388e-04
-4.566567593179102214e-02 -6.868334691957351905e-04
-4.536542813517935313e-02 -7.353725431433755233e-04
-4.506518033856768413e-02 -7.870326434688004963e-04
-4.476493254195601512e-02 -8.419909271720944516e-04
-4.446468474534434612e-02 -9.004329178659434621e-04
-4.416443694873267711e-02 -9.625527857742741892e-04
-4.386418915212100811e-02 -1.028553629385040588e-03
-4.356394135550933910e-02 -1.098647758163062401e-03
-4.326369355889767010e-02 -1.173056975683886994e-03
-4.296344576228600110e-02 -1.252012862502614298e-03
-4.266319796567433209e-02 -1.335757058024250035e-03
-4.236295016906266309e-02 -1.424541540593611847e-03
-4.206270237245099408e-02 -1.518628904973371579e-03
-4.176245457583932508e-02 -1.618292636329090890e-03
-4.146220677922765607e-02 -1.723817379789194986e-03
-4.116195898261598707e-02 -1.835499204597567388e-03
-4.086171118600431806e-02 -1.953645861824451595e-03
-4.056146338939264906e-02 -2.078577034551027259e-03
-4.026121559278098005e-02 -2.210624579391594607e-03
-3.996096779616931105e-02 -2.350132758166630174e-03
-3.966071999955764205e-02 -2.497458458490085017e-03
-3.936047220294597304e-02 -2.652971401984569391e-03
-3.906022440633430404e-02 -2.817054338790438671e-03
-3.875997660972263503e-02 -2.990103226986651729e-03
-3.845972881311096603e-02 -3.172527395497010214e-03
-3.815948101649929702e-02 -3.364749689010400596e-03
-3.785923321988762802e-02 -3.567206593402771214e-03
-3.755898542327595901e-02 -3.780348340108742600e-03
-3.725873762666429001e-02 -4.004638987854270207e-03
-3.695848983005262101e-02 -4.240556480127836286e-03
-3.665824203344095200e-02 -4.488592676737030579e-03
-3.635799423682928300e-02 -4.749253357770362102e-03
-3.605774644021761399e-02 -5.023058198261543851e-03
-3.575749864360594499e-02 -5.310540711833868638e-03
-3.545725084699427598e-02 -5.612248161587831026e-03
-3.515700305038260698e-02 -5.928741436487125482e-03
-3.485675525377093797e-02 -6.260594891491760156e-03
-3.455650745715926897e-02 -6.608396149689635575e-03
-3.425625966054759997e-02 -6.972745864684774982e-03
-3.395601186393593096e-02 -7.354257441513210002e-03
-3.365576406732426196e-02 -7.753556714377764399e-03
-3.335551627071259295e-02 -8.171281579518607438e-03
-3.305526847410092395e-02 -8.608081581571563543e-03
-3.275502067748925494e-02 -9.064617451804968945e-03
-3.245477288087758594e-02 -9.541560596676559869e-03
-3.215452508426591693e-02 -1.003959253520752236e-02
-3.185427728765424793e-02 -1.055940428373325357e-02
-3.155402949104257893e-02 -1.110169568666879644e-02
-3.125378169443090992e-02 -1.166717469200125729e-02
-3.095353389781924092e-02 -1.225655657031798559e-02
-3.065328610120757191e-02 -1.287056307627390019e-02
-3.035303830459590291e-02 -1.350992155151161181e-02
-3.005279050798423390e-02 -1.417536396816590494e-02
-2.975254271137256490e-02 -1.486762591220514018e-02
-2.945229491476089589e-02 -1.558744550600531936e-02
-2.915204711814922689e-02 -1.633556226968935557e-02
-2.885179932153755789e-02 -1.711271592092268243e-02
-2.855155152492588888e-02 -1.791964511301653851e-02
-2.825130372831421988e-02 -1.875708611136001763e-02
-2.795105593170255087e-02 -1.962577140838766762e-02
-2.765080813509088187e-02 -2.052642827746822482e-02
-2.735056033847921286e-02 -2.145977726630664967e-02
-2.705031254186754386e-02 -2.242653063064887348e-02
-2.675006474525587485e-02 -2.342739070929250947e-02
-2.644981694864420585e-02 -2.446304824162653241e-02
-2.614956915203253685e-02 -2.553418062914913911e-02
-2.584932135542086784e-02 -2.664145014263964370e-02
-2.554907355880919884e-02 -2.778550207690458698e-02
-2.524882576219752983e-02 -2.896696285525464723e-02
-2.494857796558586083e-02 -3.018643808611754659e-02
-2.464833016897419182e-02 -3.144451057444117709e-02
-2.434808237236252282e-02 -3.274173829079805864e-02
-2.404783457575085381e-02 -3.407865230134872470e-02
-2.374758677913918481e-02 -3.545575466208597537e-02
-2.344733898252751580e-02 -3.687351628103355261e-02
-2.314709118591584680e-02 -3.833237475233405162e-02
-2.284684338930417780e-02 -3.983273216640120101e-02
-2.254659559269250879e-02 -4.137495290058679220e-02
-2.224634779608083979e-02 -4.295936139503569312e-02
-2.194609999946917078e-02 -4.458623991866274977e-02
-2.164585220285750178e-02 -4.625582633041610409e-02
-2.134560440624583277e-02 -4.796831184122402059e-02
-2.104535660963416377e-02 -4.972383878224576059e-02
-2.074510881302249476e-02 -5.152249838525586184e-02
-2.044486101641082576e-02 -5.336432858120510048e-02
-2.014461321979915676e-02 -5.524931182318060935e-02
-1.984436542318748775e-02 -5.717737294017693345e-02
-1.954411762657581875e-02 -5.914837702825120197e-02
-1.924386982996414974e-02 -6.116212738578701708e-02
-1.894362203335248074e-02 -6.321836349972274893e-02
-1.864337423674081173e-02 -6.531675908973004485e-02
-1.834312644012914273e-02 -6.745692021740325173e-02
-1.804287864351747372e-02 -6.963838346763635834e-02
-1.774263084690580472e-02 -7.186061420937901734e-02
-1.744238305029413572e-02 -7.412300494304516207e-02
-1.714213525368246671e-02 -7.642487374183191962e-02
-1.684188745707079771e-02 -7.876546279422018404e-02
-1.654163966045912870e-02 -8.114393705487787933e-02
-1.624139186384745970e-02 -8.355938301115289901e-02
-1.594114406723579069e-02 -8.601080757224915940e-02
-1.564089627062412169e-02 -8.849713708806257462e-02
-1.534064847401245268e-02 -9.101721650454773493e-02
-1.504040067740078368e-02 -9.356980866231014160e-02
-1.474015288078911468e-02 -9.615359374491068423e-02
-1.443990508417744567e-02 -9.876716888320688503e-02
-1.413965728756577667e-02 -1.014090479217616692e-01
-1.383940949095410766e-02 -1.040776613531057965e-01
